# Ni2+, Z = 28
# Ground state: 2p6 3d8, Excited state: 2p5 3d9
# Slater-Condon integrals reduction (100% means no reduction): Fdd = 80%, Fpd = 80%, Gpd = 80%
# Spin-Orbit coupling reduction: Core - 99%, Valence - 99%
#
# C4h crystal field symmetry
# 10dq =  1.000 eV, d1 =  0.000 eV, d3 = 0.000 eV
#
# Initial states used and their weight (T = 300.0 K)
# State Energy Weight
# -1+ -2.428 (33.3%)
# 1+ -2.428 (33.3%)
# 2+ -2.428 (33.3%)
#
# Lifetime broadening (lorentzian) = 0.50
# Instrumental broadening (gaussian) = 0.10
#
parallel,right,left
-8.0702,0.24284807678728226,0.24284790544464047,0.24284790544464047
-7.969719024390244,0.4312804314163041,0.4312801243589782,0.4312801243589782
-7.869238048780487,0.5315423527305875,0.5315419684944518,0.5315419684944518
-7.768757073170732,0.5902391689126464,0.5902387341195156,0.5902387341195156
-7.668276097560976,0.6496315607584594,0.6496310725461314,0.6496310725461314
-7.567795121951219,0.7180357129805394,0.7180351621434664,0.7180351621434664
-7.467314146341463,0.7978525456258191,0.7978519204896807,0.7978519204896807
-7.366833170731708,0.8917165202611722,0.891715806262455,0.891715806262455
-7.266352195121951,1.0030200746269111,1.003019253438489,1.003019253438489
-7.165871219512195,1.1361788194984421,1.1361778678447805,1.1361778678447805
-7.0653902439024385,1.2969808204706736,1.296979708530022,1.296979708530022
-6.964909268292683,1.4930461620498368,1.4930448513157053,1.4930448513157053
-6.864428292682927,1.7343986879982867,1.7343971284798576,1.7343971284798576
-6.763947317073171,2.034087398939723,2.034085525682449,2.034085525682449
-6.6634663414634145,2.4086188145290865,2.408616543793482,2.408616543793482
-6.562985365853659,2.8775519316668503,2.8775491580605808,2.8775491580605808
-6.462504390243902,3.4608291784475433,3.460825776439581,3.460825776439581
-6.362023414634146,4.171437091861301,4.1714329288142675,4.1714329288142675
-6.261542439024391,5.001133255921178,5.001128227350852,5.001128227350852
-6.161061463414635,5.9013094944837725,5.901303588152453,5.901303588152453
-6.060580487804878,6.771063603972728,6.771056975687884,6.771056975687884
-5.960099512195122,7.471527618982123,7.471520625145543,7.471520625145543
-5.859618536585366,7.872422252146371,7.872415381039043,7.872415381039043
-5.75913756097561,7.906090442404095,7.90608416042876,7.90608416042876
-5.658656585365854,7.591323135617797,7.59131774976531,7.59131774976531
-5.558175609756098,7.01586163310325,7.015857253496222,7.015857253496222
-5.457694634146342,6.299367010275219,6.299363601563279,6.299363601563279
-5.357213658536585,5.5585267826699445,5.558524240433278,5.558524240433278
-5.256732682926829,4.880149520386386,4.880147728830159,4.880147728830159
-5.1562517073170735,4.306619905894341,4.306618769320133,4.306618769320133
-5.055770731707318,3.839479444798207,3.83947890087286,3.83947890087286
-4.955289756097562,3.458323671642912,3.458323693977763,3.458323693977763
-4.854808780487805,3.143031011679207,3.1430316051471454,3.1430316051471454
-4.754327804878049,2.885970218532177,2.8859714069054068,2.8859714069054068
-4.653846829268293,2.6895325047064045,2.6895343069425777,2.6895343069425777
-4.553365853658537,2.556404238565793,2.5564066314467406,2.5564066314467406
-4.452884878048781,2.482942181683215,2.4829450589592783,2.4829450589592783
-4.3524039024390255,2.459543530756115,2.4595466881047154,2.4595466881047154
-4.251922926829269,2.4749939346177454,2.4749971086162548,2.4749971086162548
-4.151441951219512,2.5188154678208226,2.5188184163210945,2.5188184163210945
-4.050960975609756,2.5783217445448634,2.5783243143067542,2.5783243143067542
-3.9504800000000007,2.6340960111340825,2.634098152345996,2.634098152345996
-3.849999024390245,2.6608402274925003,2.6608419645086085,2.6608419645086085
-3.749518048780488,2.635046579015541,2.635047970932898,2.635047970932898
-3.6490370731707324,2.5439365983096667,2.543937711001003,2.543937711001003
-3.5485560975609767,2.3906693532861234,2.390670245899916,2.390670245899916
-3.44807512195122,2.194304706508087,2.1943054273843567,2.1943054273843567
-3.3475941463414642,1.9828816066132497,1.9828821935739076,1.9828821935739076
-3.2471131707317085,1.7811313094100967,1.7811317915053244,1.7811317915053244
-3.146632195121952,1.600773945858709,1.6007743452842988,1.6007743452842988
-3.046151219512196,1.4400717517629646,1.4400720855086266,1.4400720855086266
-2.9456702439024394,1.2913200195780765,1.2913203007211813,1.2913203007211813
-2.8451892682926836,1.149291900414701,1.1492921390964996,1.1492921390964996
-2.744708292682928,1.0144327262781196,1.0144329304284099,1.0144329304284099
-2.644227317073171,0.8904847301321479,0.8904849060046495,0.8904849060046495
-2.5437463414634154,0.7808169501119918,0.7808171026804602,0.7808171026804602
-2.4432653658536596,0.6866741389779438,0.6866742722306732,0.6866742722306732
-2.342784390243903,0.6073455781587674,0.6073456953190217,0.6073456953190217
-2.242303414634147,0.5410276657996143,0.5410277694918857,0.5410277694918857
-2.1418224390243914,0.4855874871222903,0.48558757949871195,0.48558757949871195
-2.0413414634146347,0.4390102001541846,0.4390102829914266,0.4390102829914266
-1.940860487804879,0.3995814866303029,0.39958156140444545,0.39958156140444545
-1.8403795121951232,0.3659165460216302,0.365916613966475,0.365916613966475
-1.7398985365853665,0.33692293535182183,0.33692299750464233,0.33692299750464233
-1.6394175609756108,0.31174555018389966,0.3117456074216027,0.3117456074216027
-1.538936585365855,0.28971439770526924,0.28971445077316776,0.28971445077316776
-1.4384556097560983,0.27030153333375684,0.2703015828686276,0.2703015828686276
-1.3379746341463425,0.25308760043792783,0.2530876469865885,0.2530876469865885
-1.2374936585365868,0.23773648766026115,0.23773653169464606,0.23773653169464606
-1.13701268292683,0.22397630708507182,0.22397634901452335,0.22397634901452335
-1.0365317073170743,0.21158512204543967,0.21158516222679502,0.21158516222679502
-0.9360507317073186,0.20038019258622247,0.20038023133212496,0.20038023133212496
-0.8355697560975619,0.19020981649714072,0.19020985408293486,0.19020985408293486
-0.7350887804878061,0.1809470895725846,0.18094712624205767,0.18094712624205767
-0.6346078048780504,0.17248509255136676,0.17248512852155395,0.17248512852155395
-0.5341268292682937,0.16473314610399728,0.16473318156922973,0.16473318156922973
-0.4336458536585379,0.1576138717647486,0.1576139069000673,0.1576139069000673
-0.33316487804878214,0.15106086611322633,0.15106090107729161,0.15106090107729161
-0.23268390243902548,0.145016845521428,0.14501688045899688,0.14501688045899688
-0.1322029268292697,0.13943215499027528,0.139432190034331,0.139432190034331
-0.031721951219513045,0.13426356098000822,0.13426359625359902,0.13426359625359902
0.06875902439024273,0.12947326749726693,0.12947330311509847,0.12947330311509847
0.1692399999999985,0.12502810901557063,0.12502814508540308,0.12502814508540308
0.2697209756097543,0.12089888447228263,0.12089892109615115,0.12089892109615115
0.37020195121951005,0.1170598045953776,0.11705984187067951,0.11705984187067951
0.4706829268292676,0.11348803087512767,0.1134880688955916,0.1134880688955916
0.5711639024390234,0.11016328911756558,0.11016332797412583,0.11016332797412583
0.6716448780487791,0.10706754406615256,0.10706758384773973,0.10706758384773973
0.7721258536585349,0.10418472432355586,0.10418476511782712,0.10418476511782712
0.8726068292682907,0.1015004889435702,0.10150053083758945,0.10150053083758945
0.9730878048780465,0.09900202873950577,0.09900207182037787,0.09900207182037787
1.073568780487804,0.09667789667809724,0.096677941033578,0.096677941033578
1.1740497560975598,0.09451786277844697,0.09451790849752621,0.09451790849752621
1.2745307317073156,0.09251278977495622,0.09251283694843081,0.09251283694843081
1.3750117073170713,0.09065452647832449,0.09065457519936516,0.09065457519936516
1.4754926829268271,0.08893581631511238,0.08893586667983122,0.08893586667983122
1.5759736585365829,0.08735021897161215,0.08735027107963927,0.08735027107963927
1.6764546341463404,0.08589204343315013,0.08589209738822615,0.08589209738822615
1.7769356097560962,0.08455629101214286,0.08455634692273475,0.08455634692273475
1.877416585365852,0.08333860721037345,0.08333866519031737,0.08333866519031737
1.9778975609756078,0.08223524147345837,0.0822353016426435,0.0822353016426435
2.0783785365853635,0.08124301407674647,0.08124307656184239,0.08124307656184239
2.178859512195121,0.0803592895387041,0.08035935447394213,0.08035935447394213
2.279340487804877,0.07958195609583751,0.07958202362385684,0.07958202362385684
2.3798214634146326,0.07890941089712311,0.07890948116989024,0.07890948116989024
2.4803024390243884,0.07834055068978918,0.07834062386960373,0.07834062386960373
2.580783414634144,0.0778747678758373,0.07787484413643819,0.07787484413643819
2.6812643902439,0.07751195192318354,0.0775120314509672,0.0775120314509672
2.7817453658536575,0.07725249622000559,0.07725257921537862,0.07725257921537862
2.8822263414634133,0.07709731056904527,0.07709739724792426,0.07709739724792426
2.982707317073169,0.07704783963361275,0.07704793022910256,0.07704793022910256
3.083188292682925,0.07710608777267373,0.07710618253694197,0.07710618253694197
3.1836692682926806,0.0772746508427715,0.07727475004915553,0.07727475004915553
3.2841502439024364,0.07755675570471958,0.07755685965009813,0.07755685965009813
3.384631219512194,0.07795630835871557,0.0779564173661912,0.0779564173661912
3.4851121951219497,0.07847795185007288,0.078478066272007,0.078478066272007
3.5855931707317055,0.07912713534779131,0.07912725556925704,0.07912725556925704
3.6860741463414612,0.079910196110819,0.07991032255353571,0.07991032255353571
3.786555121951217,0.08083445643576079,0.08083458956259483,0.08083458956259483
3.887036097560973,0.08190833814269348,0.08190847846281947,0.08190847846281947
3.9875170731707303,0.08314149772483331,0.08314164579967392,0.08314164579967392
4.087998048780486,0.08454498599213948,0.08454514244222561,0.08454514244222561
4.188479024390242,0.08613143691571414,0.08613160242863138,0.08613160242863138
4.288959999999998,0.08791529147775896,0.08791546681739325,0.08791546681739325
4.389440975609753,0.08991306371468241,0.08991324973200347,0.08991324973200347
4.489921951219509,0.09214365789268399,0.09214385553838837,0.09214385553838837
4.590402926829267,0.0946287479874913,0.09462895832687188,0.09462895832687188
4.6908839024390225,0.09739323350177846,0.09739345773229639,0.09739345773229639
4.791364878048778,0.10046578934552845,0.10046602881766557,0.10046602881766557
4.891845853658534,0.10387953229724257,0.10387978853935947,0.10387978853935947
4.99232682926829,0.10767283282667439,0.10767310757480532,0.10767310757480532
5.092807804878047,0.1118903092992825,0.11189060453300481,0.11189060453300481
5.193288780487803,0.11658405249841744,0.1165843704842916,0.1165843704842916
5.293769756097559,0.12181514296679903,0.121815486311263,0.121815486311263
5.394250731707315,0.12765554324705822,0.12765591496122738,0.12765591496122738
5.4947317073170705,0.13419047361397102,0.13419087719351863,0.13419087719351863
5.595212682926826,0.1415214160650458,0.14152185558933025,0.14152185558933025
5.695693658536584,0.14976994106091976,0.14977042131685064,0.14977042131685064
5.79617463414634,0.15908262035498505,0.1590831469929478,0.1590831469929478
5.896655609756095,0.16963738522530802,0.169637964956932,0.169637964956932
5.997136585365851,0.181651824004466,0.18165246485548583,0.18165246485548583
6.097617560975607,0.1953941023759742,0.19539481401220468,0.19539481401220468
6.198098536585363,0.2111974574943638,0.21119825164550055,0.21119825164550055
6.29857951219512,0.2294795939515505,0.22948048496687776,0.22948048496687776
6.399060487804876,0.2507688359249812,0.2507698415081834,0.2507698415081834
6.499541463414632,0.2757396089004041,0.27574075108888646,0.27574075108888646
6.600022439024388,0.30526076142997133,0.30526206790885557,0.30526206790885557
6.700503414634143,0.3404613332918276,0.3404628391649769,0.3404628391649769
6.800984390243899,0.38281930498817024,0.3828210551662747,0.3828210551662747
6.901465365853657,0.434278558410204,0.4342806108084469,0.4342806108084469
7.001946341463412,0.4973947669624821,0.49739719669279986,0.49739719669279986
7.102427317073168,0.5754946507622364,0.5754975553624566,0.5754975553624566
7.202908292682924,0.6727873974641425,0.6727909026942708,0.6727909026942708
7.30338926829268,0.7942567578924058,0.794261022241555,0.794261022241555
7.4038702439024355,0.9449373887834708,0.9449426017095561,0.9449426017095561
7.504351219512193,1.1278465783550278,1.1278529417676337,1.1278529417676337
7.604832195121949,1.3397355102133546,1.3397431871163208,1.3397431871163208
7.705313170731705,1.565014253297951,1.5650232727148594,1.5650232727148594
7.80579414634146,1.7718812283604684,1.7718913699033594,1.7718913699033594
7.906275121951216,1.918486478123454,1.918497216979271,1.918497216979271
8.006756097560974,1.9724663182695714,1.972476920840997,1.972476920840997
8.10723707317073,1.9318506280843737,1.9318603810580206,1.9318603810580206
8.207718048780485,1.8278671416192018,1.8278755644801483,1.8278755644801483
8.308199024390241,1.7069481517775753,1.7069550601407975,1.7069550601407975
8.408679999999997,1.6096507075108593,1.6096561376004366,1.6096561376004366
8.509160975609753,1.5615355178750863,1.5615396091501026,1.5615396091501026
8.609641951219508,1.5751578274776075,1.5751607350103811,1.5751607350103811
8.710122926829264,1.6547204099641681,1.654722262996299,1.654722262996299
8.81060390243902,1.7972285393285636,1.7972294363987906,1.7972294363987906
8.91108487804878,1.9882802040625864,1.9882802339267587,1.9882802339267587
9.011565853658535,2.194926402541463,2.1949256811486904,2.1949256811486904
9.11204682926829,2.363942100958602,2.363940805488553,2.363940805488553
9.212527804878047,2.436420667726112,2.4364190381498907,2.4364190381498907
9.313008780487802,2.3773339486020695,2.3773322417670686,2.3773322417670686
9.413489756097558,2.197144803011938,2.197143225686932,2.197143225686932
9.513970731707314,1.9434973780513078,1.9434960465469917,1.9434960465469917
9.61445170731707,1.671445664049791,1.6714446097009446,1.6714446097009446
9.714932682926825,1.4193763829367059,1.4193755840076139,1.4193755840076139
9.815413658536581,1.203722703490322,1.2037221166660856,1.2037221166660856
9.915894634146337,1.0259973460893115,1.0259969257987072,1.0259969257987072
10.016375609756093,0.8816068687499813,0.8816065754527059,0.8816065754527059
10.116856585365852,0.7651591142226707,0.7651589164151184,0.7651589164151184
10.217337560975608,0.6719568844225371,0.6719567579962702,0.6719567579962702
10.317818536585364,0.5975373082075802,0.5975372350444527,0.5975372350444527
10.41829951219512,0.5370652975257821,0.5370652640973292,0.5370652640973292
10.518780487804875,0.48551799044929134,0.4855179866571682,0.4855179866571682
10.619261463414631,0.4387388805391735,0.43873889882377776,0.43873889882377776
10.719742439024387,0.3945624059996636,0.39456244067713797,0.39456244067713797
10.820223414634143,0.3529125181594318,0.3529125649353166,0.3529125649353166
10.920704390243898,0.31476428289190117,0.3147643385058224,0.3147643385058224
11.021185365853654,0.2809682836575982,0.2809683456233494,0.2809683456233494
11.12166634146341,0.25174339653419797,0.25174346294882144,0.25174346294882144
11.222147317073166,0.2267749906831045,0.22677506008584097,0.22677506008584097
11.322628292682925,0.20549689050389552,0.20549696177130047,0.20549696177130047
11.42310926829268,0.18730323902790882,0.18730331129533412,0.18730331129533412
11.523590243902436,0.171649568068745,0.17164964067114916,0.17164964067114916
11.624071219512192,0.158082260834285,0.15808233326132248,0.15808233326132248
11.724552195121948,0.14623548725501104,0.14623555911674058,0.14623555911674058
11.825033170731704,0.13581750201953902,0.13581757302006953,0.13581757302006953
11.92551414634146,0.12659572561010526,0.12659579552724323,0.12659579552724323
12.025995121951215,0.1183838050460509,0.11838387371548689,0.11838387371548689
12.126476097560971,0.11103128052596428,0.11103134782892475,0.11103134782892475
12.226957073170727,0.10441446956569181,0.10441453541842027,0.10441453541842027
12.327438048780483,0.09836798099368793,0.0983680452937004,0.0983680452937004
12.427919024390242,0.0915561064518528,0.09155616820962928,0.09155616820962928
12.5284,0.07622255941259558,0.07622261206029655,0.07622261206029655
